CURRENT ALTITUDE, GOAL ALTITUDE, CURRENT PITCH, GOAL PITCH, DISTANCE TO TARGET, GOAL VSPEED, CURRENT VSPEED
648.967334366869, 598.866426645662, 62.5916986959682, 0.5, 9505.17693463913, 0, -50.9550823784055
647.944486461114, 598.871191382525, 62.6065914206642, 8.28623218888773, 9504.73093661314, 0, -51.136546945662
646.919379187515, 598.875715398346, 62.624772400043, 8.38501760926174, 9504.27541690164, 0, -51.2504505301094
645.893080281559, 598.880519687315, 62.6462789083637, 8.47293606161583, 9503.84266917015, 0, -51.3103005467043
644.866446510656, 598.884949864703, 62.6721430946386, 8.5554221261509, 9503.39528673827, 0, -51.3268989350562
643.840152372723, 598.888814669102, 62.7031872029593, 8.62964129596963, 9502.95171429201, 0, -51.3088822874345
642.814722632058, 598.892062228173, 62.740235619517, 8.69920679381012, 9502.49372206906, 0, -51.2631581950523
641.790546787553, 598.8948892263, 62.7843516114745, 8.76545765534761, 9502.05760195321, 0, -51.1952537003558
640.767878465704, 598.896719959215, 62.83691709304, 8.82974755492918, 9501.62610896435, 0, -51.1095980465798
639.746953185764, 598.897742503439, 62.8768401283394, 8.89113156821798, 9501.17897135671, 0, -51.0097537299514
638.727979694493, 598.897948486963, 62.886791799364, 8.95004293252893, 9500.7363144874, 0, -50.8986446251633
637.71113522863, 598.897354483721, 62.8589805882638, 9.00784505609585, 9500.29814043546, 0, -50.778679822351
636.696565150516, 598.895612963359, 62.7891475687471, 9.06406540228742, 9499.86398305865, 0, -50.6518377764202
635.684385853936, 598.912166751223, 62.674071420043, 9.218158712073, 9499.42191010246, 0, -50.5197433087805
634.674690067302, 598.929189553601, 62.5108692196574, 9.32727723324706, 9498.99478520084, 0, -50.3837334979935
633.667546822457, 598.945077327429, 62.2967158451717, 9.3816844983198, 9498.55486112592, 0, -50.2449122604793
632.663010174059, 598.960376209347, 62.0290145901889, 9.43677954417382, 9498.10616091706, 0, -50.1041952929292
631.661118272226, 598.974560770439, 61.7054953065045, 9.49072141129552, 9497.67514653851, 0, -49.9623458733034
630.661896456149, 598.987813876942, 61.3244141732415, 9.54350019001695, 9497.23511772572, 0, -49.8200032870209
629.665358918952, 599.000525685959, 60.8846201419359, 9.59741921046739, 9496.81206045845, 0, -49.6777060048145
628.671513197944, 599.01172543189, 60.3856415304172, 9.64879180020171, 9496.36169731359, 0, -49.5359092690859
627.68035497237, 599.022802208201, 59.8278156273169, 9.70268252232074, 9495.92903526249, 0, -49.3949995848203
626.69187691703, 599.032562628156, 59.2121531398515, 9.75449406471045, 9495.48791597362, 0, -49.2553078758867
625.706064207014, 599.041266074404, 58.5404987053562, 9.80651998699231, 9495.0507701951, 0, -49.117129219491
624.722894861712, 599.049429825856, 57.8151912604456, 9.85876503281868, 9494.61841876304, 0, -48.9807337281192
623.74234420876, 599.05699203047, 57.0391857208002, 9.91030865041127, 9494.18464558527, 0, -48.8463522136073
622.764380896348, 599.063354237122, 56.21586577462, 9.96392170653071, 9493.74174711583, 0, -48.7141810538473
621.788973164745, 599.069243685924, 55.348907552393, 10.0168526044359, 9493.28558251165, 0, -48.5843850129542
620.816082840553, 599.073817611439, 54.442270905962, 10.068171029165, 9492.8508798044, 0, -48.4571030054924
619.845668540918, 599.077820901526, 53.5000024497376, 10.1211007283482, 9492.40219663204, 0, -48.3324538198525
618.877688911976, 599.081285343738, 52.5263194023378, 10.1964803157272, 9491.95705816669, 0, -48.2105405960585
617.912095906679, 599.086251162924, 51.525265061715, 10.265402276009, 9491.4978501739, 0, -48.0914590168639
616.948843598249, 599.093012526399, 50.5009024408103, 10.3194704908453, 9491.05973605898, 0, -47.9752991029499
615.987882525427, 599.09921818669, 49.4571960121577, 10.3719453291852, 9490.60778953785, 0, -47.8621467712725
615.029160338454, 599.104408731917, 48.39762988512, 10.4279011441686, 9490.14087651367, 0, -47.7520596483966
614.072620955179, 599.109221570427, 47.3253418799944, 10.4822877696673, 9489.68283925087, 0, -47.6450967690349
613.118212397094, 599.113101588679, 46.2442130942746, 10.5369410284762, 9489.20391237992, 0, -47.5412467174789
612.165884327842, 599.116610578261, 45.1579680659344, 10.590940393231, 9488.74632573986, 0, -47.4402798329025
611.215589410043, 599.119217137806, 44.0697971794081, 10.6475194040424, 9488.27838909574, 0, -47.3420377226718
610.267280867556, 599.120872506639, 42.9826366054172, 10.7025434294708, 9487.80831294214, 0, -47.2464544605731
609.320908640744, 599.122361656046, 41.8991070069812, 10.7592362464431, 9487.31044857283, 0, -47.1536485883316
608.376418961561, 599.122992278542, 40.8217142294449, 10.8153040511973, 9486.83184114255, 0, -47.0638018063856
607.43375263724, 599.123126485152, 39.7526629804555, 10.8725924516845, 9486.34907429398, 0, -46.9771406499122
606.492844058201, 599.122894941946, 38.6940078023453, 10.9297280616435, 9485.83935090037, 0, -46.8939277298516
605.553622568143, 599.121733491193, 37.647655719961, 10.9867107858595, 9485.34755105211, 0, -46.8144270436777
604.616008764482, 599.120301378309, 36.6153095493741, 11.0463164227336, 9484.84033573788, 0, -46.7389335255379
603.67992002517, 599.118239990203, 35.5985064345321, 11.104873011735, 9484.31693509665, 0, -46.6677133278274
602.74526609655, 599.115804709145, 34.598602001963, 11.1651465905225, 9483.81083620088, 0, -46.6010060989665
601.811954786303, 599.112520097406, 33.6168583563282, 11.2243807308121, 9483.28743731503, 0, -46.5390236232363
600.879885987379, 599.109108610428, 32.654365484929, 11.2867294219538, 9482.76497592173, 0, -46.4819375130977
599.948959367583, 599.105202695006, 31.7120112650189, 11.3487569302282, 9482.24171753953, 0, -46.4298805409327
599.019072070369, 599.10074112413, 30.7906606713989, 11.4116173706512, 9481.68929878198, 0, -46.3829379427186
598.090119178058, 599.096119090798, 29.8909615063021, 11.4755517783841, 9481.14796624545, 0, -46.34115310101
597.161995937466, 599.091038807645, 29.0135146726704, 11.5410349617867, 9480.59429628847, 0, -46.3045215387927
596.234596224967, 599.085499811568, 28.1587480717579, 11.6069273517417, 9480.03460283335, 0, -46.2729972105598
595.307822138187, 599.079778378946, 27.3271461327956, 11.6736964397144, 9479.47882864202, 0, -46.2464677414715
594.381576400716, 599.073670322192, 26.5190667691173, 11.7406579849668, 9478.90595669637, 0, -46.2246173995211
593.455763546051, 599.067527898471, 25.7347859852895, 11.8087396913767, 9478.33122537301, 0, -46.2073563877727
592.530291668721, 599.060997746885, 24.974578107041, 11.8779537415614, 9477.73811893804, 0, -46.194562021054
591.605074205203, 599.054136631079, 24.2385788653891, 11.9492376221136, 9477.14469529393, 0, -46.186082602239
590.680024075904, 599.047030673129, 23.5268478641777, 12.018449462824, 9476.56529251408, 0, -46.1817376089199
589.755061720964, 599.040069256327, 22.8393278737247, 12.0906563939321, 9475.96809666394, 0, -46.1813242674236
588.830108570517, 599.032627215493, 22.1759491217313, 12.1633455918953, 9475.35182099881, 0, -46.1846202588855
587.90509329678, 599.025093975593, 21.5364889752483, 12.2372159092681, 9474.73959794321, 0, -46.1913898609948
586.979948642896, 599.017241620575, 20.9208010315902, 12.309041016633, 9474.11869905328, 0, -46.2013847624858
586.054611664964, 599.009697207715, 20.3285754288177, 12.3857386534015, 9473.48483932398, 0, -46.2143485332971
585.129026917275, 599.001859422773, 19.7594816451461, 12.4585697996036, 9472.84773998035, 0, -46.2300205263385
584.20313905389, 598.993694394245, 19.2131372613228, 12.5344326585179, 9472.20767356095, 0, -46.248138171892
583.276907224441, 598.985645477544, 18.6892032694863, 12.6119710472524, 9471.56458581723, 0, -46.2684380471584
582.350286882021, 598.977573021199, 18.1871670164307, 12.6872695665501, 9470.90198169053, 0, -46.2906628829037
581.423244721373, 598.969136788859, 17.706578716656, 12.7646989611372, 9470.25165723548, 0, -46.3145546397396
580.495747494977, 598.96112413425, 17.2469804844667, 12.841967987066, 9469.58174035651, 0, -46.3398673548687
579.567771425587, 598.952833866118, 16.8078513936918, 12.9197681909827, 9468.9076258434, 0, -46.3663625506415
578.639293896733, 598.944489545887, 16.3886041543806, 12.9969478541117, 9468.21876929898, 0, -46.3938083544432
577.710298673483, 598.936675612698, 15.9887636901487, 13.0765068813048, 9467.53609967992, 0, -46.4219824731157
576.780774750514, 598.928271872108, 15.6078152418562, 13.1549998586668, 9466.83762141923, 0, -46.4506765363367
575.850711972918, 598.920055153314, 15.2451148894128, 13.2321832693468, 9466.11853178587, 0, -46.4796975204148
574.920105791884, 598.911606773967, 14.9001360011694, 13.3117436624991, 9465.42159260459, 0, -46.508862957079
573.988956123823, 598.903433760977, 14.5724124550061, 13.3918548942838, 9464.69198424048, 0, -46.5380040107604
573.057265729876, 598.895369208883, 14.2612355907379, 13.469745984415, 9463.97419855514, 0, -46.5669652858006
572.125036256621, 598.886995762703, 13.9661778280705, 13.5493250384484, 9463.23353498724, 0, -46.5956056206948
571.192279906245, 598.879118735786, 13.6865083718725, 13.6289899079106, 9462.50353745363, 0, -46.6237939610465
570.259000291, 598.870639477856, 13.421790856807, 13.7078153193437, 9461.74037382366, 0, -46.651414347702
569.325213985518, 598.862747701234, 13.1714617250674, 13.7883360909192, 9460.98178581978, 0, -46.6783626340727
568.390932616312, 598.854536212981, 12.9349033925957, 13.8668681576139, 9460.23329092708, 0, -46.7045494692916
567.456174427527, 598.846906570252, 12.7116443405337, 13.945702797555, 9459.45161485227, 0, -46.7298988413683
566.520953556639, 598.838994799997, 12.5010858746911, 14.0255364450841, 9458.67341249465, 0, -46.7543441580222
565.585289464681, 598.831158242421, 12.3027900339985, 14.1054535960304, 9457.87755572655, 0, -46.7778318153599
564.64920013689, 598.823458803585, 12.1161061580446, 14.1838350023111, 9457.09067293083, 0, -46.8003231859331
563.712710159598, 598.815711995354, 11.9406363888803, 14.2639021227382, 9456.28050062148, 0, -46.8217899569331
562.775826554396, 598.808369412902, 11.7758175320678, 14.3424335363414, 9455.47355167082, 0, -46.8422150584378
561.838579889503, 598.800703297835, 11.6211572267747, 14.4217254040608, 9454.66400330566, 0, -46.8615858065412
560.900990137714, 598.793021823745, 11.4762505993184, 14.4999344763436, 9453.83180268208, 0, -46.8798421060536
559.963075833395, 598.785752109718, 11.3405226150239, 14.5802870948142, 9452.98043363599, 0, -46.8969123553302
559.02486546454, 598.778495358885, 11.2136240690675, 14.6584101014164, 9452.14738190822, 0, -46.9127244961918
558.086381083122, 598.771135776187, 11.0950542271819, 14.737286298951, 9451.29112299981, 0, -46.9272146448855
557.147650749888, 598.763859946514, 10.9844154258545, 14.8148411097354, 9450.44178491078, 0, -46.9403212621815
556.208704245277, 598.756417859113, 10.881337760235, 14.8922165076721, 9449.55807850621, 0, -46.9519863810033
555.269566249335, 598.749275363982, 10.7853103560369, 14.9724172743216, 9448.69234820751, 0, -46.9621542515977
554.330269964295, 598.742231427692, 10.6960368879658, 15.0483016834512, 9447.80713103188, 0, -46.9707732681492
553.390850772033, 598.735385483829, 10.6131678969504, 15.1281510035557, 9446.92406829971, 0, -46.9777932400804
552.451331212767, 598.728015880333, 10.5363339667438, 15.2041417456915, 9446.02182475597, 0, -46.983169797768
551.511753601371, 598.721110828104, 10.4652105287674, 15.2810901965871, 9445.10999481242, 0, -46.9868564404104
550.572146415943, 598.713854515576, 10.3994288622771, 15.3590061291918, 9444.20105308214, 0, -46.9888122502756
549.632545409957, 598.707115203375, 10.338776349265, 15.4351234277216, 9443.27178137168, 0, -46.9889975300718
548.692986164126, 598.699999727076, 10.2828514231293, 15.5117357933994, 9442.33348520592, 0, -46.9873760420797
547.753508321824, 598.693328970112, 10.2314413768151, 15.5876914891392, 9441.38644194134, 0, -46.9839129746157
546.814145716839, 598.686003360315, 10.1842421001014, 15.6629831833979, 9440.44517890842, 0, -46.9785773782149
545.874931804137, 598.679471182753, 10.1409870355066, 15.7389914877786, 9439.47914258366, 0, -46.9713407601043
544.935913579189, 598.672177414759, 10.1014915171864, 15.815492402032, 9438.51969139918, 0, -46.9621730418498
543.997121582855, 598.665589639335, 10.0654354265998, 15.8894835921072, 9437.52520619724, 0, -46.9510496587001
543.058602116536, 598.658446214977, 10.0326590326764, 15.9641767170113, 9436.54665938215, 0, -46.9379453678473
542.120388709591, 598.651438746136, 10.0029578065159, 16.0377284978949, 9435.55866262774, 0, -46.9228375232576
541.18252309633, 598.644409427419, 9.97606586068812, 16.1122086247453, 9434.56153128404, 0, -46.9057076849293
540.245049957419, 598.637528113672, 9.95196130510189, 16.1867015579915, 9433.54475776649, 0, -46.8865360986342
539.308004351682, 598.630486252834, 9.93032601575229, 16.2595880141502, 9432.54304639662, 0, -46.865305862398
538.371428137645, 598.623312116717, 9.91099640300693, 16.3313135230168, 9431.5070924768, 0, -46.8420021930232
537.435363072436, 598.615968890372, 9.89378781740214, 16.4048730626853, 9430.47076035784, 0, -46.8166114374434
536.499853056273, 598.609119805624, 9.8786944879317, 16.4772789389973, 9429.43046386929, 0, -46.7891221033689
535.564939774922, 598.601721821935, 9.86539152167039, 16.5480562666887, 9428.38070239523, 0, -46.7595224492055
534.630656023743, 598.594354461879, 9.85388029900734, 16.6204264581846, 9427.32088111044, 0, -46.7278067487661
533.697058057878, 598.58705261955, 9.84400794524838, 16.6902427482562, 9426.26134595225, 0, -46.693964435111
532.76418791234, 598.579386607627, 9.8357881632821, 16.762336045214, 9425.18198062067, 0, -46.657991361069
531.832078675739, 598.571785742184, 9.82893421601675, 16.8311789636815, 9424.09372829684, 0, -46.6198816623596
530.900772409397, 598.564110670937, 9.82331757119044, 16.9027517015454, 9422.9948569878, 0, -46.5796325772904
529.970320169115, 598.55631556653, 9.81893002618553, 16.9710691073057, 9421.88708524686, 0, -46.5372383194791
529.040756897884, 598.548563879915, 9.81567377372902, 17.0404921051317, 9420.7835325307, 0, -46.492701248851
528.112129014917, 598.540497712209, 9.81350591561517, 17.1082569767004, 9419.67069908265, 0, -46.4460200591645
527.184479371645, 598.532640658319, 9.81224104966515, 17.1766598219164, 9418.52348630388, 0, -46.397191195392
526.257846082677, 598.524163861875, 9.81191149136097, 17.245245277, 9417.39114453202, 0, -46.3462207883872
525.332271447405, 598.515620153048, 9.81247311031257, 17.3117024983942, 9416.24895619512, 0, -46.2931089626401
524.407805842697, 598.507007919718, 9.81374786225757, 17.3790166680502, 9415.09782999474, 0, -46.237858467281
523.484494536533, 598.498227980803, 9.81584682015929, 17.4458095620603, 9413.92717183723, 0, -46.1804739128357
522.562368039507, 598.489525934332, 9.81857994399385, 17.5109196227819, 9412.77026397946, 0, -46.1209611103386
521.64147649915, 598.480610339786, 9.82193363836903, 17.5764116134446, 9411.58007167717, 0, -46.0593232287602
520.721858023899, 598.471321552992, 9.82595611370475, 17.6425216876179, 9410.40408538791, 0, -45.9955675721064
519.803550489829, 598.461971335462, 9.83058049995759, 17.7076378494164, 9409.19497180162, 0, -45.9296999311387
518.886606785469, 598.452453731908, 9.83566725559193, 17.7708249730872, 9407.99056528203, 0, -45.8617276961534
517.971066225204, 598.44270507677, 9.84136410999612, 17.8343766951561, 9406.78529588812, 0, -45.7916584518567
517.056964565301, 598.432900162414, 9.8475388210236, 17.8980665117117, 9405.56164173122, 0, -45.7194990205437
516.144349878188, 598.422750441707, 9.85405115773753, 17.9618968019045, 9404.32826903879, 0, -45.6452598676785
515.233250058605, 598.412697388325, 9.86113354638657, 18.0233253769574, 9403.085414247, 0, -45.5689479467105
514.323726674542, 598.401835384313, 9.86861853535765, 18.0860289276261, 9401.8336727508, 0, -45.4905765534716
513.415803129901, 598.39116082096, 9.87660970218663, 18.1467834999816, 9400.58591378566, 0, -45.4101513426846
512.509531163494, 598.380451798905, 9.88495226835326, 18.2083453697201, 9399.31475595585, 0, -45.3276801482972
511.6049400107, 598.369405389531, 9.89373187349938, 18.2691049640518, 9398.04856934049, 0, -45.24317418334
510.702084354358, 598.357854522881, 9.90307580595164, 18.3290548794122, 9396.77215904693, 0, -45.1566452365084
509.801000240492, 598.34603902942, 9.91279221076277, 18.3893443309149, 9395.47189070183, 0, -45.0681061337825
508.901714873617, 598.334551957785, 9.92275146602222, 18.4485901801015, 9394.16788993693, 0, -44.9775606738329
508.004281462054, 598.322291492601, 9.93329221877553, 18.5070138991449, 9392.86424826378, 0, -44.8850191070187
507.108727749204, 598.309924976784, 9.94418746980399, 18.5653020481192, 9391.55997605138, 0, -44.7904940070676
506.215109977406, 598.297564769164, 9.95557640917131, 18.6225292437031, 9390.22526391666, 0, -44.6939961643353
505.323465860914, 598.284705169033, 9.96755349323097, 18.6812301942049, 9388.90448055102, 0, -44.5955336676338
504.433825353975, 598.271862638532, 9.97986139557415, 18.7377207247379, 9387.56056390731, 0, -44.4951241317355
503.546218597447, 598.258703617612, 9.99244941828159, 18.7942920035663, 9386.21167306415, 0, -44.3927802227225
502.660705934628, 598.245038114022, 10.0056900536341, 18.8500210838922, 9384.83981066066, 0, -44.288525617006
501.777305289521, 598.231008596835, 10.019333098287, 18.90605716496, 9383.48195539965, 0, -44.1823776704877
500.896063367487, 598.21699731343, 10.033503423046, 18.9607857679741, 9382.10500445399, 0, -44.0743529901154
500.017021679319, 598.202539344085, 10.0483591791681, 19.0151198787949, 9380.71922644285, 0, -43.9644705595857
499.140210022568, 598.187965187128, 10.0634853235249, 19.0697509281016, 9379.32360471664, 0, -43.8527471459257
498.2656689164, 598.172906943946, 10.0792610594408, 19.123064432216, 9377.94185735537, 0, -43.7392042273287
497.393433169578, 598.157714019879, 10.0955399826091, 19.1771299944555, 9376.52789112486, 0, -43.6238560639574
496.523526478442, 598.142324872315, 10.1123121517076, 19.2301066907071, 9375.10487726983, 0, -43.5067246668331
495.655998360249, 598.126704026829, 10.1296790457166, 19.281753322235, 9373.6855178557, 0, -43.3878280720419
494.790887164883, 598.11066905444, 10.1476231542655, 19.3327515394453, 9372.25734157963, 0, -43.2671829740597
493.928215211607, 598.094332909444, 10.166102535409, 19.3851782649914, 9370.80588387814, 0, -43.1448132530345
493.068036829471, 598.077730069985, 10.185262353978, 19.4367372488222, 9369.34963890905, 0, -43.0207347135251
492.210350400186, 598.060947850579, 10.2048903913829, 19.4858017843589, 9367.8930211486, 0, -42.8949659726059
491.355221039616, 598.043711400824, 10.2253343971293, 19.5374364639992, 9366.42717771255, 0, -42.7675245991165
490.50266891066, 598.025985434069, 10.2463247535479, 19.5851934091819, 9364.96507784104, 0, -42.6384299683294
489.652728753979, 598.008383155568, 10.2679253566696, 19.6364357963403, 9363.47133798083, 0, -42.5076959310354
488.805435368908, 597.990382143762, 10.2900654568865, 19.6835688950808, 9361.97645749936, 0, -42.3753470758634
487.960818077554, 597.972112805815, 10.3131011420171, 19.7321028422451, 9360.48603502124, 0, -42.2413956972655
487.118905831361, 597.953585932031, 10.3367316364795, 19.7806666722263, 9358.9631773758, 0, -42.1058593152428
486.279741512961, 597.934504395816, 10.3610583508225, 19.8264868180685, 9357.45347374008, 0, -41.9687638433209
485.443337597302, 597.91528187925, 10.3860728075047, 19.8746254197767, 9355.9247415879, 0, -41.8301177047198
484.609746075119, 597.895779098151, 10.4118541493753, 19.9200200919846, 9354.39532618745, 0, -41.6899393893964
483.778985453187, 597.875711582135, 10.4382658213763, 19.9658823789532, 9352.85631220772, 0, -41.5482446208477
482.951079728315, 597.855618861038, 10.4656100494351, 20.0119881583629, 9351.31159503092, 0, -41.4050452928887
482.126065903343, 597.835172741325, 10.4934970855229, 20.0578795432407, 9349.75249919913, 0, -41.2603623619227
